# DATA flag=2 
# TAG = Amplitude_decay
# YAXIS Normal 0 0.1 0.02 1 decimal 2 A(m) 
# XAXIS Normal 1e-06 29.999 5 1 decimal 0 t(s) 
# TITLE " \4(b) m=0.102 kg " 5 0.085 
2.52952 0.0720683 0.001
3.096 0.0648731 0.001
3.7975 0.0602221 0.001
4.36269 0.0538742 0.001
4.92466 0.0496449 0.001
5.62552 0.0454176 0.001
6.18685 0.0416121 0.001
6.74497 0.0399251 0.001
7.5815 0.0378183 0.001
8.14476 0.0327416 0.001
8.70738 0.0280886 0.001
9.26678 0.0255542 0.001
9.96571 0.022598 0.001
10.5238 0.020911 0.001
11.2215 0.0188022 0.001
11.7802 0.0166915 0.001
12.3377 0.0154282 0.001
13.036 0.0128958 0.001
14.2892 0.0107949 0.001
15.4028 0.0091157 0.001
16.6554 0.0074385 0.001
18.603 0.0053474 0.001
20.4124 0.00283063 0.001
23.608 0.00202833 0.001


